#K-Path(1/A) Energy-Level(eV)
# NKPTS & NBANDS: 153 144
# Band-Index:    1
   0.00000    -35.634463
   0.01526    -35.634448
   0.03052    -35.634407
   0.04579    -35.634341
   0.06105    -35.634249
   0.07631    -35.634132
   0.09157    -35.633990
   0.10684    -35.633824
   0.12210    -35.633635
   0.13736    -35.633423
   0.15262    -35.633189
   0.16789    -35.632934
   0.18315    -35.632660
   0.19841    -35.632366
   0.21367    -35.632054
   0.22894    -35.631726
   0.24420    -35.631383
   0.25946    -35.631026
   0.27472    -35.630656
   0.28998    -35.630276
   0.30525    -35.629886
   0.32051    -35.629488
   0.33577    -35.629083
   0.35103    -35.628674
   0.36630    -35.628261
   0.38156    -35.627847
   0.39682    -35.627433
   0.41208    -35.627021
   0.42735    -35.626612
   0.44261    -35.626207
   0.45787    -35.625810
   0.47313    -35.625420
   0.48840    -35.625040
   0.50366    -35.624672
   0.51892    -35.624316
   0.53418    -35.623974
   0.54944    -35.623647
   0.56471    -35.623337
   0.57997    -35.623044
   0.59523    -35.622771
   0.61049    -35.622518
   0.62576    -35.622286
   0.64102    -35.622077
   0.65628    -35.621890
   0.67154    -35.621727
   0.68681    -35.621588
   0.70207    -35.621474
   0.71733    -35.621385
   0.73259    -35.621322
   0.74786    -35.621285
   0.76312    -35.621273
   0.76312    -35.621273
   0.77838    -35.621262
   0.79364    -35.621228
   0.80890    -35.621172
   0.82417    -35.621094
   0.83943    -35.620994
   0.85469    -35.620873
   0.86995    -35.620731
   0.88522    -35.620569
   0.90048    -35.620386
   0.91574    -35.620185
   0.93100    -35.619966
   0.94627    -35.619729
   0.96153    -35.619476
   0.97679    -35.619207
   0.99205    -35.618924
   1.00732    -35.618628
   1.02258    -35.618320
   1.03784    -35.618000
   1.05310    -35.617671
   1.06836    -35.617334
   1.08363    -35.616990
   1.09889    -35.616641
   1.11415    -35.616286
   1.12941    -35.615930
   1.14468    -35.615571
   1.15994    -35.615213
   1.17520    -35.614856
   1.19046    -35.614501
   1.20573    -35.614151
   1.22099    -35.613806
   1.23625    -35.613469
   1.25151    -35.613139
   1.26678    -35.612819
   1.28204    -35.612510
   1.29730    -35.612213
   1.31256    -35.611929
   1.32782    -35.611660
   1.34309    -35.611406
   1.35835    -35.611168
   1.37361    -35.610948
   1.38887    -35.610746
   1.40414    -35.610563
   1.41940    -35.610400
   1.43466    -35.610257
   1.44992    -35.610135
   1.46519    -35.610035
   1.48045    -35.609956
   1.49571    -35.609900
   1.51097    -35.609866
   1.52624    -35.609855
   1.52624    -35.609855
   1.54782    -35.609878
   1.56940    -35.609946
   1.59099    -35.610059
   1.61257    -35.610217
   1.63416    -35.610419
   1.65574    -35.610664
   1.67733    -35.610952
   1.69891    -35.611282
   1.72049    -35.611652
   1.74208    -35.612062
   1.76366    -35.612510
   1.78525    -35.612995
   1.80683    -35.613515
   1.82841    -35.614068
   1.85000    -35.614653
   1.87158    -35.615267
   1.89317    -35.615908
   1.91475    -35.616575
   1.93634    -35.617264
   1.95792    -35.617974
   1.97950    -35.618701
   2.00109    -35.619443
   2.02267    -35.620197
   2.04426    -35.620961
   2.06584    -35.621731
   2.08743    -35.622504
   2.10901    -35.623277
   2.13059    -35.624048
   2.15218    -35.624813
   2.17376    -35.625568
   2.19535    -35.626312
   2.21693    -35.627040
   2.23852    -35.627749
   2.26010    -35.628437
   2.28168    -35.629101
   2.30327    -35.629737
   2.32485    -35.630344
   2.34644    -35.630917
   2.36802    -35.631454
   2.38960    -35.631954
   2.41119    -35.632414
   2.43277    -35.632831
   2.45436    -35.633205
   2.47594    -35.633532
   2.49753    -35.633812
   2.51911    -35.634044
   2.54069    -35.634225
   2.56228    -35.634356
   2.58386    -35.634435
   2.60545    -35.634463
 
# Band-Index:    2
   2.60545    -35.634462
   2.58386    -35.634435
   2.56228    -35.634356
   2.54069    -35.634225
   2.51911    -35.634044
   2.49753    -35.633812
   2.47594    -35.633532
   2.45436    -35.633205
   2.43277    -35.632831
   2.41119    -35.632414
   2.38960    -35.631954
   2.36802    -35.631454
   2.34644    -35.630917
   2.32485    -35.630344
   2.30327    -35.629737
   2.28168    -35.629101
   2.26010    -35.628437
   2.23852    -35.627749
   2.21693    -35.627040
   2.19535    -35.626312
   2.17376    -35.625568
   2.15218    -35.624813
   2.13059    -35.624048
   2.10901    -35.623277
   2.08743    -35.622504
   2.06584    -35.621731
   2.04426    -35.620961
   2.02267    -35.620197
   2.00109    -35.619443
   1.97950    -35.618701
   1.95792    -35.617974
   1.93634    -35.617264
   1.91475    -35.616575
   1.89317    -35.615908
   1.87158    -35.615267
   1.85000    -35.614653
   1.82841    -35.614068
   1.80683    -35.613515
   1.78525    -35.612995
   1.76366    -35.612510
   1.74208    -35.612062
   1.72049    -35.611652
   1.69891    -35.611282
   1.67733    -35.610952
   1.65574    -35.610664
   1.63416    -35.610419
   1.61257    -35.610217
   1.59099    -35.610059
   1.56940    -35.609946
   1.54782    -35.609878
   1.52624    -35.609855
   1.52624    -35.609855
   1.51097    -35.609866
   1.49571    -35.609900
   1.48045    -35.609956
   1.46519    -35.610035
   1.44992    -35.610135
   1.43466    -35.610257
   1.41940    -35.610400
   1.40414    -35.610563
   1.38887    -35.610746
   1.37361    -35.610948
   1.35835    -35.611168
   1.34309    -35.611406
   1.32782    -35.611660
   1.31256    -35.611929
   1.29730    -35.612213
   1.28204    -35.612510
   1.26678    -35.612819
   1.25151    -35.613139
   1.23625    -35.613469
   1.22099    -35.613806
   1.20573    -35.614151
   1.19046    -35.614501
   1.17520    -35.614856
   1.15994    -35.615213
   1.14468    -35.615571
   1.12941    -35.615930
   1.11415    -35.616286
   1.09889    -35.616641
   1.08363    -35.616990
   1.06836    -35.617334
   1.05310    -35.617671
   1.03784    -35.618000
   1.02258    -35.618320
   1.00732    -35.618628
   0.99205    -35.618924
   0.97679    -35.619207
   0.96153    -35.619476
   0.94627    -35.619729
   0.93100    -35.619966
   0.91574    -35.620185
   0.90048    -35.620386
   0.88522    -35.620569
   0.86995    -35.620731
   0.85469    -35.620873
   0.83943    -35.620994
   0.82417    -35.621094
   0.80890    -35.621172
   0.79364    -35.621228
   0.77838    -35.621262
   0.76312    -35.621273
   0.76312    -35.621273
   0.74786    -35.621285
   0.73259    -35.621322
   0.71733    -35.621385
   0.70207    -35.621474
   0.68681    -35.621588
   0.67154    -35.621727
   0.65628    -35.621890
   0.64102    -35.622076
   0.62576    -35.622286
   0.61049    -35.622518
   0.59523    -35.622771
   0.57997    -35.623044
   0.56471    -35.623337
   0.54944    -35.623647
   0.53418    -35.623974
   0.51892    -35.624316
   0.50366    -35.624672
   0.48840    -35.625040
   0.47313    -35.625420
   0.45787    -35.625810
   0.44261    -35.626207
   0.42735    -35.626612
   0.41208    -35.627021
   0.39682    -35.627433
   0.38156    -35.627847
   0.36630    -35.628261
   0.35103    -35.628674
   0.33577    -35.629083
   0.32051    -35.629488
   0.30525    -35.629886
   0.28998    -35.630276
   0.27472    -35.630656
   0.25946    -35.631026
   0.24420    -35.631383
   0.22894    -35.631726
   0.21367    -35.632054
   0.19841    -35.632366
   0.18315    -35.632659
   0.16789    -35.632934
   0.15262    -35.633189
   0.13736    -35.633423
   0.12210    -35.633635
   0.10684    -35.633824
   0.09157    -35.633990
   0.07631    -35.634132
   0.06105    -35.634249
   0.04579    -35.634341
   0.03052    -35.634407
   0.01526    -35.634448
   0.00000    -35.634462
 
# Band-Index:    3
   0.00000    -35.631734
   0.01526    -35.631723
   0.03052    -35.631686
   0.04579    -35.631624
   0.06105    -35.631537
   0.07631    -35.631425
   0.09157    -35.631288
   0.10684    -35.631128
   0.12210    -35.630944
   0.13736    -35.630739
   0.15262    -35.630511
   0.16789    -35.630263
   0.18315    -35.629995
   0.19841    -35.629707
   0.21367    -35.629403
   0.22894    -35.629082
   0.24420    -35.628745
   0.25946    -35.628395
   0.27472    -35.628033
   0.28998    -35.627659
   0.30525    -35.627276
   0.32051    -35.626885
   0.33577    -35.626487
   0.35103    -35.626084
   0.36630    -35.625678
   0.38156    -35.625270
   0.39682    -35.624862
   0.41208    -35.624455
   0.42735    -35.624052
   0.44261    -35.623652
   0.45787    -35.623260
   0.47313    -35.622875
   0.48840    -35.622499
   0.50366    -35.622134
   0.51892    -35.621781
   0.53418    -35.621442
   0.54944    -35.621118
   0.56471    -35.620810
   0.57997    -35.620520
   0.59523    -35.620248
   0.61049    -35.619996
   0.62576    -35.619764
   0.64102    -35.619555
   0.65628    -35.619367
   0.67154    -35.619204
   0.68681    -35.619064
   0.70207    -35.618948
   0.71733    -35.618857
   0.73259    -35.618791
   0.74786    -35.618751
   0.76312    -35.618736
   0.76312    -35.618736
   0.77838    -35.618725
   0.79364    -35.618691
   0.80890    -35.618634
   0.82417    -35.618556
   0.83943    -35.618455
   0.85469    -35.618332
   0.86995    -35.618189
   0.88522    -35.618025
   0.90048    -35.617841
   0.91574    -35.617638
   0.93100    -35.617416
   0.94627    -35.617177
   0.96153    -35.616921
   0.97679    -35.616650
   0.99205    -35.616364
   1.00732    -35.616065
   1.02258    -35.615754
   1.03784    -35.615431
   1.05310    -35.615099
   1.06836    -35.614758
   1.08363    -35.614411
   1.09889    -35.614058
   1.11415    -35.613700
   1.12941    -35.613339
   1.14468    -35.612977
   1.15994    -35.612616
   1.17520    -35.612255
   1.19046    -35.611897
   1.20573    -35.611543
   1.22099    -35.611195
   1.23625    -35.610854
   1.25151    -35.610521
   1.26678    -35.610198
   1.28204    -35.609886
   1.29730    -35.609586
   1.31256    -35.609299
   1.32782    -35.609027
   1.34309    -35.608770
   1.35835    -35.608530
   1.37361    -35.608308
   1.38887    -35.608104
   1.40414    -35.607919
   1.41940    -35.607755
   1.43466    -35.607610
   1.44992    -35.607487
   1.46519    -35.607386
   1.48045    -35.607307
   1.49571    -35.607250
   1.51097    -35.607216
   1.52624    -35.607204
   1.52624    -35.607204
   1.54782    -35.607230
   1.56940    -35.607302
   1.59099    -35.607419
   1.61257    -35.607580
   1.63416    -35.607786
   1.65574    -35.608036
   1.67733    -35.608328
   1.69891    -35.608662
   1.72049    -35.609037
   1.74208    -35.609451
   1.76366    -35.609904
   1.78525    -35.610393
   1.80683    -35.610917
   1.82841    -35.611474
   1.85000    -35.612063
   1.87158    -35.612680
   1.89317    -35.613325
   1.91475    -35.613993
   1.93634    -35.614685
   1.95792    -35.615396
   1.97950    -35.616124
   2.00109    -35.616866
   2.02267    -35.617619
   2.04426    -35.618382
   2.06584    -35.619150
   2.08743    -35.619921
   2.10901    -35.620691
   2.13059    -35.621458
   2.15218    -35.622218
   2.17376    -35.622969
   2.19535    -35.623707
   2.21693    -35.624429
   2.23852    -35.625132
   2.26010    -35.625813
   2.28168    -35.626470
   2.30327    -35.627098
   2.32485    -35.627697
   2.34644    -35.628263
   2.36802    -35.628793
   2.38960    -35.629285
   2.41119    -35.629737
   2.43277    -35.630147
   2.45436    -35.630514
   2.47594    -35.630834
   2.49753    -35.631108
   2.51911    -35.631333
   2.54069    -35.631509
   2.56228    -35.631635
   2.58386    -35.631710
   2.60545    -35.631734
 
# Band-Index:    4
   2.60545    -35.631734
   2.58386    -35.631710
   2.56228    -35.631635
   2.54069    -35.631509
   2.51911    -35.631333
   2.49753    -35.631108
   2.47594    -35.630834
   2.45436    -35.630514
   2.43277    -35.630147
   2.41119    -35.629737
   2.38960    -35.629285
   2.36802    -35.628793
   2.34644    -35.628263
   2.32485    -35.627697
   2.30327    -35.627098
   2.28168    -35.626470
   2.26010    -35.625813
   2.23852    -35.625132
   2.21693    -35.624429
   2.19535    -35.623707
   2.17376    -35.622969
   2.15218    -35.622218
   2.13059    -35.621458
   2.10901    -35.620691
   2.08743    -35.619921
   2.06584    -35.619150
   2.04426    -35.618382
   2.02267    -35.617619
   2.00109    -35.616866
   1.97950    -35.616124
   1.95792    -35.615396
   1.93634    -35.614685
   1.91475    -35.613993
   1.89317    -35.613325
   1.87158    -35.612680
   1.85000    -35.612063
   1.82841    -35.611474
   1.80683    -35.610917
   1.78525    -35.610393
   1.76366    -35.609904
   1.74208    -35.609451
   1.72049    -35.609037
   1.69891    -35.608662
   1.67733    -35.608328
   1.65574    -35.608036
   1.63416    -35.607786
   1.61257    -35.607580
   1.59099    -35.607419
   1.56940    -35.607302
   1.54782    -35.607230
   1.52624    -35.607204
   1.52624    -35.607204
   1.51097    -35.607216
   1.49571    -35.607250
   1.48045    -35.607307
   1.46519    -35.607386
   1.44992    -35.607487
   1.43466    -35.607610
   1.41940    -35.607755
   1.40414    -35.607919
   1.38887    -35.608104
   1.37361    -35.608308
   1.35835    -35.608530
   1.34309    -35.608770
   1.32782    -35.609027
   1.31256    -35.609299
   1.29730    -35.609586
   1.28204    -35.609886
   1.26678    -35.610198
   1.25151    -35.610521
   1.23625    -35.610854
   1.22099    -35.611195
   1.20573    -35.611543
   1.19046    -35.611897
   1.17520    -35.612255
   1.15994    -35.612616
   1.14468    -35.612977
   1.12941    -35.613339
   1.11415    -35.613700
   1.09889    -35.614058
   1.08363    -35.614411
   1.06836    -35.614758
   1.05310    -35.615099
   1.03784    -35.615431
   1.02258    -35.615753
   1.00732    -35.616065
   0.99205    -35.616364
   0.97679    -35.616650
   0.96153    -35.616921
   0.94627    -35.617177
   0.93100    -35.617416
   0.91574    -35.617638
   0.90048    -35.617841
   0.88522    -35.618025
   0.86995    -35.618189
   0.85469    -35.618332
   0.83943    -35.618455
   0.82417    -35.618555
   0.80890    -35.618634
   0.79364    -35.618691
   0.77838    -35.618725
   0.76312    -35.618736
   0.76312    -35.618736
   0.74786    -35.618751
   0.73259    -35.618791
   0.71733    -35.618857
   0.70207    -35.618948
   0.68681    -35.619064
   0.67154    -35.619204
   0.65628    -35.619367
   0.64102    -35.619555
   0.62576    -35.619764
   0.61049    -35.619996
   0.59523    -35.620248
   0.57997    -35.620520
   0.56471    -35.620810
   0.54944    -35.621118
   0.53418    -35.621442
   0.51892    -35.621781
   0.50366    -35.622134
   0.48840    -35.622499
   0.47313    -35.622875
   0.45787    -35.623260
   0.44261    -35.623652
   0.42735    -35.624052
   0.41208    -35.624455
   0.39682    -35.624862
   0.38156    -35.625270
   0.36630    -35.625678
   0.35103    -35.626084
   0.33577    -35.626487
   0.32051    -35.626885
   0.30525    -35.627276
   0.28998    -35.627659
   0.27472    -35.628033
   0.25946    -35.628395
   0.24420    -35.628745
   0.22894    -35.629082
   0.21367    -35.629403
   0.19841    -35.629707
   0.18315    -35.629995
   0.16789    -35.630263
   0.15262    -35.630511
   0.13736    -35.630739
   0.12210    -35.630944
   0.10684    -35.631128
   0.09157    -35.631288
   0.07631    -35.631425
   0.06105    -35.631537
   0.04579    -35.631624
   0.03052    -35.631686
   0.01526    -35.631723
   0.00000    -35.631734
 
# Band-Index:    5
   0.00000    -35.458057
   0.01526    -35.458048
   0.03052    -35.458022
   0.04579    -35.457978
   0.06105    -35.457918
   0.07631    -35.457840
   0.09157    -35.457745
   0.10684    -35.457634
   0.12210    -35.457508
   0.13736    -35.457366
   0.15262    -35.457209
   0.16789    -35.457038
   0.18315    -35.456853
   0.19841    -35.456656
   0.21367    -35.456446
   0.22894    -35.456226
   0.24420    -35.455995
   0.25946    -35.455755
   0.27472    -35.455506
   0.28998    -35.455250
   0.30525    -35.454987
   0.32051    -35.454719
   0.33577    -35.454446
   0.35103    -35.454170
   0.36630    -35.453892
   0.38156    -35.453613
   0.39682    -35.453333
   0.41208    -35.453055
   0.42735    -35.452779
   0.44261    -35.452505
   0.45787    -35.452237
   0.47313    -35.451974
   0.48840    -35.451717
   0.50366    -35.451467
   0.51892    -35.451227
   0.53418    -35.450995
   0.54944    -35.450774
   0.56471    -35.450564
   0.57997    -35.450366
   0.59523    -35.450181
   0.61049    -35.450009
   0.62576    -35.449852
   0.64102    -35.449709
   0.65628    -35.449582
   0.67154    -35.449471
   0.68681    -35.449376
   0.70207    -35.449298
   0.71733    -35.449237
   0.73259    -35.449193
   0.74786    -35.449166
   0.76312    -35.449158
   0.76312    -35.449158
   0.77838    -35.449150
   0.79364    -35.449125
   0.80890    -35.449085
   0.82417    -35.449028
   0.83943    -35.448956
   0.85469    -35.448868
   0.86995    -35.448766
   0.88522    -35.448648
   0.90048    -35.448517
   0.91574    -35.448371
   0.93100    -35.448213
   0.94627    -35.448042
   0.96153    -35.447859
   0.97679    -35.447665
   0.99205    -35.447461
   1.00732    -35.447247
   1.02258    -35.447024
   1.03784    -35.446794
   1.05310    -35.446556
   1.06836    -35.446313
   1.08363    -35.446064
   1.09889    -35.445812
   1.11415    -35.445556
   1.12941    -35.445298
   1.14468    -35.445039
   1.15994    -35.444781
   1.17520    -35.444523
   1.19046    -35.444267
   1.20573    -35.444014
   1.22099    -35.443766
   1.23625    -35.443522
   1.25151    -35.443284
   1.26678    -35.443053
   1.28204    -35.442830
   1.29730    -35.442616
   1.31256    -35.442411
   1.32782    -35.442216
   1.34309    -35.442033
   1.35835    -35.441862
   1.37361    -35.441703
   1.38887    -35.441557
   1.40414    -35.441425
   1.41940    -35.441307
   1.43466    -35.441204
   1.44992    -35.441116
   1.46519    -35.441044
   1.48045    -35.440987
   1.49571    -35.440947
   1.51097    -35.440922
   1.52624    -35.440914
   1.52624    -35.440914
   1.54782    -35.440930
   1.56940    -35.440978
   1.59099    -35.441059
   1.61257    -35.441172
   1.63416    -35.441317
   1.65574    -35.441492
   1.67733    -35.441699
   1.69891    -35.441935
   1.72049    -35.442200
   1.74208    -35.442494
   1.76366    -35.442814
   1.78525    -35.443160
   1.80683    -35.443531
   1.82841    -35.443925
   1.85000    -35.444341
   1.87158    -35.444777
   1.89317    -35.445232
   1.91475    -35.445704
   1.93634    -35.446192
   1.95792    -35.446692
   1.97950    -35.447204
   2.00109    -35.447726
   2.02267    -35.448255
   2.04426    -35.448790
   2.06584    -35.449328
   2.08743    -35.449867
   2.10901    -35.450405
   2.13059    -35.450940
   2.15218    -35.451470
   2.17376    -35.451993
   2.19535    -35.452506
   2.21693    -35.453007
   2.23852    -35.453495
   2.26010    -35.453967
   2.28168    -35.454422
   2.30327    -35.454857
   2.32485    -35.455271
   2.34644    -35.455661
   2.36802    -35.456027
   2.38960    -35.456367
   2.41119    -35.456678
   2.43277    -35.456961
   2.45436    -35.457213
   2.47594    -35.457434
   2.49753    -35.457623
   2.51911    -35.457778
   2.54069    -35.457900
   2.56228    -35.457987
   2.58386    -35.458039
   2.60545    -35.458057
 
# Band-Index:    6
   2.60545    -35.458051
   2.58386    -35.458033
   2.56228    -35.457981
   2.54069    -35.457894
   2.51911    -35.457772
   2.49753    -35.457617
   2.47594    -35.457428
   2.45436    -35.457207
   2.43277    -35.456955
   2.41119    -35.456672
   2.38960    -35.456360
   2.36802    -35.456021
   2.34644    -35.455655
   2.32485    -35.455265
   2.30327    -35.454851
   2.28168    -35.454416
   2.26010    -35.453961
   2.23852    -35.453489
   2.21693    -35.453001
   2.19535    -35.452500
   2.17376    -35.451987
   2.15218    -35.451464
   2.13059    -35.450934
   2.10901    -35.450399
   2.08743    -35.449861
   2.06584    -35.449321
   2.04426    -35.448783
